//E[eV]	XS elastic [1e-20 m^2]
0.005	4.60207
0.00616471	4.41491
0.00732941	4.24983
0.00849412	4.1017
0.00965882	3.96708
0.0108235	3.84357
0.0119882	3.72938
0.0131529	3.62314
0.0143176	3.5238
0.0154824	3.4305
0.0166471	3.34255
0.0178118	3.25938
0.0189765	3.18051
0.0201412	3.10552
0.0213059	3.03407
0.0224706	2.96586
0.0236353	2.90062
0.0248	2.83813
0.0259647	2.77817
0.0271294	2.72057
0.0282941	2.66517
0.0294588	2.61183
0.0306235	2.5604
0.0317882	2.51078
0.0329529	2.46285
0.0341176	2.41653
0.0352824	2.37171
0.0364471	2.32833
0.0376118	2.28629
0.0387765	2.24555
0.0399412	2.20602
0.0411059	2.16765
0.0422706	2.13039
0.0434353	2.09419
0.0446	2.05899
0.0457647	2.02476
0.0469294	1.99145
0.0480941	1.95902
0.0492588	1.92744
0.0504235	1.89668
0.0515882	1.86669
0.0527529	1.83745
0.0539176	1.80893
0.0550824	1.78111
0.0562471	1.75396
0.0574118	1.72745
0.0585765	1.70157
0.0597412	1.67628
0.0609059	1.65158
0.0620706	1.62743
0.0632353	1.60383
0.0644	1.58075
0.0655647	1.55818
0.0667294	1.53609
0.0678941	1.51449
0.0690588	1.49334
0.0702235	1.47264
0.0713882	1.45238
0.0725529	1.43253
0.0737176	1.4131
0.0748824	1.39406
0.0760471	1.3754
0.0772118	1.35712
0.0783765	1.3392
0.0795412	1.32164
0.0807059	1.30442
0.0818706	1.28754
0.0830353	1.27099
0.0842	1.25475
0.0853647	1.23882
0.0865294	1.22319
0.0876941	1.20786
0.0888588	1.19281
0.0900235	1.17804
0.0911882	1.16355
0.0923529	1.14932
0.0935176	1.13535
0.0946824	1.12164
0.0958471	1.10817
0.0970118	1.09494
0.0981765	1.08195
0.0993412	1.06919
0.100506	1.05666
0.101671	1.04435
0.102835	1.03225
0.104	1.02036
0.105165	1.00868
0.106329	0.997202
0.107494	0.985919
0.108659	0.97483
0.109824	0.96393
0.110988	0.953215
0.112153	0.942681
0.113318	0.932324
0.114482	0.922141
0.115647	0.912128
0.116812	0.902283
0.117976	0.8926
0.119141	0.883078
0.120306	0.873712
0.121471	0.864501
0.122635	0.855441
0.1238	0.846528
0.124965	0.837761
0.126129	0.829136
0.127294	0.820651
0.128459	0.812303
0.129624	0.80409
0.130788	0.796009
0.131953	0.788057
0.133118	0.780232
0.134282	0.772533
0.135447	0.764956
0.136612	0.7575
0.137776	0.750162
0.138941	0.74294
0.140106	0.735833
0.141271	0.728837
0.142435	0.721952
0.1436	0.715175
0.144765	0.708505
0.145929	0.70194
0.147094	0.695477
0.148259	0.689116
0.149424	0.682854
0.150588	0.676689
0.151753	0.670621
0.152918	0.664648
0.154082	0.658768
0.155247	0.652979
0.156412	0.64728
0.157576	0.64167
0.158741	0.636147
0.159906	0.63071
0.161071	0.625357
0.162235	0.620088
0.1634	0.6149
0.164565	0.609793
0.165729	0.604765
0.166894	0.599815
0.168059	0.594942
0.169224	0.590144
0.170388	0.585421
0.171553	0.580772
0.172718	0.576195
0.173882	0.571689
0.175047	0.567253
0.176212	0.562886
0.177376	0.558587
0.178541	0.554356
0.179706	0.55019
0.180871	0.54609
0.182035	0.542054
0.1832	0.538081
0.184365	0.53417
0.185529	0.530321
0.186694	0.526533
0.187859	0.522804
0.189024	0.519134
0.190188	0.515523
0.191353	0.511968
0.192518	0.50847
0.193682	0.505028
0.194847	0.501641
0.196012	0.498307
0.197176	0.495028
0.198341	0.4918
0.199506	0.488625
0.200671	0.485501
0.201835	0.482428
0.203	0.479405
0.204165	0.476431
0.205329	0.473505
0.206494	0.470628
0.207659	0.467798
0.208824	0.465014
0.209988	0.462277
0.211153	0.459585
0.212318	0.456938
0.213482	0.454335
0.214647	0.451776
0.215812	0.449261
0.216976	0.446788
0.218141	0.444357
0.219306	0.441967
0.220471	0.439619
0.221635	0.437312
0.2228	0.435044
0.223965	0.432816
0.225129	0.430627
0.226294	0.428476
0.227459	0.426364
0.228624	0.424289
0.229788	0.422252
0.230953	0.420251
0.232118	0.418286
0.233282	0.416358
0.234447	0.414464
0.235612	0.412606
0.236776	0.410782
0.237941	0.408993
0.239106	0.407237
0.240271	0.405515
0.241435	0.403825
0.2426	0.402169
0.243765	0.400544
0.244929	0.398951
0.246094	0.39739
0.247259	0.39586
0.248424	0.39436
0.249588	0.392891
0.250753	0.391452
0.251918	0.390043
0.253082	0.388663
0.254247	0.387312
0.255412	0.38599
0.256576	0.384696
0.257741	0.38343
0.258906	0.382192
0.260071	0.380982
0.261235	0.379799
0.2624	0.378642
0.263565	0.377512
0.264729	0.376409
0.265894	0.375331
0.267059	0.374279
0.268224	0.373253
0.269388	0.372251
0.270553	0.371275
0.271718	0.370323
0.272882	0.369396
0.274047	0.368492
0.275212	0.367613
0.276376	0.366757
0.277541	0.365925
0.278706	0.365115
0.279871	0.364329
0.281035	0.363565
0.2822	0.362823
0.283365	0.362104
0.284529	0.361407
0.285694	0.360731
0.286859	0.360077
0.288024	0.359444
0.289188	0.358832
0.290353	0.358241
0.291518	0.357671
0.292682	0.357121
0.293847	0.356591
0.295012	0.356081
0.296176	0.355591
0.297341	0.355121
0.298506	0.35467
0.299671	0.354239
0.300835	0.353826
0.302	0.353433
0.303165	0.353058
0.304329	0.352701
0.305494	0.352363
0.306659	0.352043
0.307824	0.351741
0.308988	0.351457
0.310153	0.351191
0.311318	0.350942
0.312482	0.35071
0.313647	0.350495
0.314812	0.350298
0.315976	0.350117
0.317141	0.349953
0.318306	0.349805
0.319471	0.349674
0.320635	0.349559
0.3218	0.34946
0.322965	0.349377
0.324129	0.34931
0.325294	0.349258
0.326459	0.349222
0.327624	0.349201
0.328788	0.349195
0.329953	0.349205
0.331118	0.349229
0.332282	0.349268
0.333447	0.349322
0.334612	0.349391
0.335776	0.349474
0.336941	0.349571
0.338106	0.349682
0.339271	0.349807
0.340435	0.349946
0.3416	0.3501
0.342765	0.350266
0.343929	0.350446
0.345094	0.35064
0.346259	0.350847
0.347424	0.351067
0.348588	0.351301
0.349753	0.351547
0.350918	0.351806
0.352082	0.352078
0.353247	0.352363
0.354412	0.35266
0.355576	0.35297
0.356741	0.353292
0.357906	0.353626
0.359071	0.353973
0.360235	0.354331
0.3614	0.354702
0.362565	0.355084
0.363729	0.355478
0.364894	0.355884
0.366059	0.356301
0.367224	0.35673
0.368388	0.35717
0.369553	0.357622
0.370718	0.358085
0.371882	0.358558
0.373047	0.359043
0.374212	0.359539
0.375376	0.360046
0.376541	0.360563
0.377706	0.361092
0.378871	0.36163
0.380035	0.36218
0.3812	0.362739
0.382365	0.36331
0.383529	0.36389
0.384694	0.364481
0.385859	0.365081
0.387024	0.365692
0.388188	0.366313
0.389353	0.366944
0.390518	0.367584
0.391682	0.368235
0.392847	0.368895
0.394012	0.369565
0.395176	0.370244
0.396341	0.370932
0.397506	0.371631
0.398671	0.372338
0.399835	0.373055
0.401	0.373781
0.402165	0.374516
0.403329	0.37526
0.404494	0.376013
0.405659	0.376775
0.406824	0.377546
0.407988	0.378326
0.409153	0.379115
0.410318	0.379912
0.411482	0.380718
0.412647	0.381532
0.413812	0.382356
0.414976	0.383187
0.416141	0.384027
0.417306	0.384875
0.418471	0.385732
0.419635	0.386597
0.4208	0.38747
0.421965	0.388351
0.423129	0.38924
0.424294	0.390137
0.425459	0.391042
0.426624	0.391955
0.427788	0.392876
0.428953	0.393805
0.430118	0.394742
0.431282	0.395686
0.432447	0.396638
0.433612	0.397597
0.434776	0.398564
0.435941	0.399539
0.437106	0.400521
0.438271	0.40151
0.439435	0.402507
0.4406	0.403511
0.441765	0.404522
0.442929	0.405541
0.444094	0.406567
0.445259	0.4076
0.446424	0.40864
0.447588	0.409687
0.448753	0.410741
0.449918	0.411802
0.451082	0.41287
0.452247	0.413945
0.453412	0.415027
0.454576	0.416115
0.455741	0.417211
0.456906	0.418313
0.458071	0.419421
0.459235	0.420537
0.4604	0.421659
0.461565	0.422787
0.462729	0.423922
0.463894	0.425064
0.465059	0.426211
0.466224	0.427366
0.467388	0.428527
0.468553	0.429694
0.469718	0.430867
0.470882	0.432047
0.472047	0.433233
0.473212	0.434425
0.474376	0.435623
0.475541	0.436827
0.476706	0.438038
0.477871	0.439254
0.479035	0.440477
0.4802	0.441705
0.481365	0.44294
0.482529	0.44418
0.483694	0.445426
0.484859	0.446679
0.486024	0.447937
0.487188	0.4492
0.488353	0.45047
0.489518	0.451745
0.490682	0.453026
0.491847	0.454313
0.493012	0.455605
0.494176	0.456903
0.495341	0.458207
0.496506	0.459516
0.497671	0.460831
0.498835	0.462151
0.5	0.463477
0.516667	0.48303
0.533333	0.503623
0.55	0.52519
0.566667	0.54767
0.583333	0.571012
0.6	0.595168
0.616667	0.620098
0.633333	0.645763
0.65	0.67213
0.666667	0.699168
0.683333	0.726849
0.7	0.755148
0.716667	0.784041
0.733333	0.813507
0.75	0.843525
0.766667	0.874077
0.783333	0.905146
0.8	0.936714
0.816667	0.968767
0.833333	1.00129
0.85	1.03427
0.866667	1.06769
0.883333	1.10154
0.9	1.1358
0.916667	1.17047
0.933333	1.20554
0.95	1.24099
0.966667	1.27681
0.983333	1.31299
1	1.24524
1.01667	1.27947
1.03333	1.3248
1.05	1.36259
1.06667	1.4015
1.08333	1.44155
1.1	1.48274
1.11667	1.52507
1.13333	1.58053
1.15	1.62654
1.16667	1.67209
1.18333	1.71691
1.2	1.76071
1.21667	1.80322
1.23333	1.81327
1.25	1.84417
1.26667	1.87424
1.28333	1.90362
1.3	1.93244
1.31667	1.96084
1.33333	1.98894
1.35	2.01685
1.36667	2.04471
1.38333	2.07262
1.4	2.10069
1.41667	2.12901
1.43333	2.18312
1.45	2.21227
1.46667	2.24134
1.48333	2.27037
1.5	2.29938
1.51667	2.32843
1.53333	2.35755
1.55	2.38677
1.56667	2.41612
1.58333	2.44564
1.6	2.47537
1.61667	2.50532
1.63333	2.54657
1.65	2.57947
1.66667	2.61228
1.68333	2.64496
1.7	2.6775
1.71667	2.70985
1.73333	2.742
1.75	2.7739
1.76667	2.80554
1.78333	2.83689
1.8	2.86792
1.81667	2.89862
1.83333	2.91765
1.85	2.94651
1.86667	2.97531
1.88333	3.00407
1.9	3.0328
1.91667	3.06151
1.93333	3.09022
1.95	3.11896
1.96667	3.14772
1.98333	3.17653
2	3.2054
2.01667	3.23435
2.03333	3.27532
2.05	3.3066
2.06667	3.33794
2.08333	3.36934
2.1	3.40079
2.11667	3.43229
2.13333	3.46383
2.15	3.49541
2.16667	3.52701
2.18333	3.55865
2.2	3.59031
2.21667	3.62199
2.23333	3.65368
2.25	3.68538
2.26667	3.71709
2.28333	3.74879
2.3	3.7805
2.31667	3.81219
2.33333	3.84388
2.35	3.87555
2.36667	3.9072
2.38333	3.93883
2.4	3.97044
2.41667	4.00202
2.43333	4.03356
2.45	4.06507
2.46667	4.09653
2.48333	4.12796
2.5	4.15934
2.51667	4.19067
2.53333	4.20766
2.55	4.23853
2.56667	4.26942
2.58333	4.3003
2.6	4.33119
2.61667	4.36208
2.63333	4.39298
2.65	4.42388
2.66667	4.45479
2.68333	4.4857
2.7	4.51662
2.71667	4.54754
2.73333	4.57847
2.75	4.6094
2.76667	4.64034
2.78333	4.67128
2.8	4.70223
2.81667	4.73319
2.83333	4.76416
2.85	4.79513
2.86667	4.8261
2.88333	4.85709
2.9	4.88808
2.91667	4.91908
2.93333	4.95008
2.95	4.98109
2.96667	5.01211
2.98333	5.04314
3	5.07418
3.08065	5.23053
3.16129	5.37899
3.24194	5.52715
3.32258	5.67503
3.40323	5.82265
3.48387	5.97001
3.56452	6.11553
3.64516	6.26428
3.72581	6.41282
3.80645	6.56112
3.8871	6.70913
3.96774	6.8568
4.04839	7.00558
4.12903	7.15084
4.20968	7.29567
4.29032	7.44011
4.37097	7.58418
4.45161	7.7279
4.53226	7.85224
4.6129	7.99513
4.69355	8.13957
4.77419	8.28587
4.85484	8.43428
4.93548	8.58507
5.01613	8.73847
5.09677	8.93383
5.17742	9.09957
5.25806	9.26723
5.33871	9.43672
5.41935	9.60797
5.5	9.7809
5.58065	9.95544
5.66129	10.1315
5.74194	10.3091
5.82258	10.488
5.90323	10.6683
5.98387	10.8499
6.06452	11.0252
6.14516	11.2129
6.22581	11.4017
6.30645	11.5913
6.3871	11.7816
6.46774	11.9726
6.54839	12.1641
6.62903	12.3561
6.70968	12.5483
6.79032	12.7407
6.87097	12.9332
6.95161	13.1257
7.03226	13.2828
7.1129	13.4721
7.19355	13.662
7.27419	13.8527
7.35484	14.044
7.43548	14.2361
7.51613	14.429
7.59677	14.6226
7.67742	14.817
7.75806	15.0122
7.83871	15.2082
7.91935	15.405
8	15.6026
8.08065	15.8588
8.16129	16.0587
8.24194	16.258
8.32258	16.4567
8.40323	16.6545
8.48387	16.8513
8.56452	17.0472
8.64516	17.242
8.72581	17.4356
8.80645	17.6279
8.8871	17.8188
8.96774	18.0083
9.04839	18.2057
9.12903	18.3961
9.20968	18.5844
9.29032	18.7704
9.37097	18.9541
9.45161	19.1353
9.53226	19.3138
9.6129	19.4896
9.69355	19.6624
9.77419	19.8323
9.85484	19.999
9.93548	20.1625
10.0161	20.3226
10.0968	20.4457
10.1774	20.5957
10.2581	20.743
10.3387	20.8876
10.4194	21.0294
10.5	21.1685
10.5806	21.3049
10.6613	21.4385
10.7419	21.5694
10.8226	21.6976
10.9032	21.823
10.9839	21.9457
11.0645	22.1002
11.1452	22.2188
11.2258	22.3337
11.3065	22.4449
11.3871	22.5523
11.4677	22.6559
11.5484	22.7556
11.629	22.8513
11.7097	22.9429
11.7903	23.0304
11.871	23.1137
11.9516	23.1927
12.0323	23.2448
12.1129	23.3158
12.1935	23.3828
12.2742	23.4458
12.3548	23.5048
12.4355	23.5597
12.5161	23.6104
12.5968	23.6571
12.6774	23.6995
12.7581	23.7378
12.8387	23.7718
12.9194	23.8016
13	23.8272
